Time	Velocity
0	0
0.1	0.01
0.2	0.04
0.3	0.08
0.4	0.14
0.5	0.21
0.6	0.3
0.7	0.39
0.8	0.49
0.9	0.6
1	0.71
1.1	0.82
1.2	0.93
1.3	1.03
1.4	1.12
1.5	1.2
1.6	1.27
1.7	1.4
1.8	1.38
1.9	1.34
2	1.29
2.1	1.22
2.2	1.14
2.3	1.05
2.4	0.95
2.5	0.85
2.6	0.74
2.7	0.63
2.8	0.52
2.9	0.42
3	0.32
3.1	0.23
3.2	0.16
3.3	0.09
3.4	0.05
3.5	0.02
