Time	Velocity
0	0
0.1	0.01
0.2	0.04
0.3	0.08
0.4	0.14
0.5	0.21
0.6	0.3
0.7	0.39
0.8	0.49
0.9	0.6
1	0.71
1.1	0.82
1.2	0.93
1.3	1.03
1.4	1.12
1.5	1.2
1.6	1.4
1.7	1.38
1.8	1.35
1.9	1.31
2	1.24
2.1	1.17
2.2	1.08
2.3	0.99
2.4	0.88
2.5	0.77
2.6	0.66
2.7	0.56
2.8	0.45
2.9	0.35
3	0.26
3.1	0.18
3.2	0.11
3.3	0.06
3.4	0.02
