Time	Velocity
0	0
0.1	0.03
0.2	0.12
0.3	0.28
0.4	0.47
0.5	0.69
0.6	0.9
0.7	1.1
0.8	1.26
0.9	1.36
1	1.4
1.1	1.4
1.2	1.4
1.3	1.4
1.4	1.4
1.5	1.36
1.6	1.25
1.7	1.09
1.8	0.89
1.9	0.68
2	0.46
2.1	0.27
2.2	0.12
2.3	0.03
