Time	Velocity
0	0
0.1	0.04
0.2	0.14
0.3	0.32
0.4	0.52
0.5	0.74
0.6	0.93
0.7	1.16
0.8	1.28
0.9	1.37
1	1.4
1.1	1.4
1.2	1.4
1.3	1.4
1.4	1.4
1.5	1.4
1.6	1.4
1.7	1.4
1.8	1.4
1.9	1.4
2	1.4
2.1	1.4
2.2	1.4
2.3	1.4
2.4	1.4
2.5	1.4
2.6	1.4
2.7	1.4
2.8	1.4
2.9	1.4
3	1.4
3.1	1.4
3.2	1.4
3.3	1.4
3.4	1.4
3.5	1.4
3.6	1.4
3.7	1.4
3.8	1.4
3.9	1.4
4	1.4
4.1	1.38
4.2	1.29
4.3	1.12
4.4	0.95
4.5	0.74
4.6	0.52
4.7	0.3
4.8	0.14
4.9	0.04
