Time	Velocity
0	0
0.1	0.01
0.2	0.03
0.3	0.08
0.4	0.13
0.5	0.2
0.6	0.29
0.7	0.38
0.8	0.48
0.9	0.59
1	0.7
1.1	0.81
1.2	0.91
1.3	1.02
1.4	1.11
1.5	1.19
1.6	1.27
1.7	1.4
1.8	1.38
1.9	1.35
2	1.31
2.1	1.24
2.2	1.17
2.3	1.08
2.4	0.98
2.5	0.88
2.6	0.77
2.7	0.66
2.8	0.55
2.9	0.45
3	0.35
3.1	0.26
3.2	0.18
3.3	0.11
3.4	0.06
3.5	0.02
