Time	Velocity
0	0
0.1	0.03
0.2	0.13
0.3	0.29
0.4	0.48
0.5	0.7
0.6	0.91
0.7	1.11
0.8	1.26
0.9	1.36
1	1.4
1.1	1.4
1.2	1.4
1.3	1.4
1.4	1.4
1.5	1.4
1.6	1.37
1.7	1.27
1.8	1.11
1.9	0.92
2	0.7
2.1	0.49
2.2	0.29
2.3	0.13
2.4	0.03
