Time	Velocity
0	0
0.1	0.03
0.2	0.13
0.3	0.28
0.4	0.48
0.5	0.69
0.6	0.91
0.7	1.11
0.8	1.27
0.9	1.36
1	1.4
1.1	1.4
1.2	1.4
1.3	1.4
1.4	1.4
1.5	1.37
1.6	1.27
1.7	1.1
1.8	0.91
1.9	0.69
2	0.48
2.1	0.28
2.2	0.13
2.3	0.04
