Time	Velocity
0	0
0.1	0.03
0.2	0.13
0.3	0.28
0.4	0.48
0.5	0.69
0.6	0.9
0.7	1.1
0.8	1.26
0.9	1.36
1	1.4
1.1	1.4
1.2	1.4
1.3	1.4
1.4	1.4
1.5	1.35
1.6	1.24
1.7	1.07
1.8	0.89
1.9	0.66
2	0.45
2.1	0.26
2.2	0.11
2.3	0.02
